Wavelength [nm]
207.425
207.805
208.185
208.565
208.945
209.325
209.705
210.085
210.465
210.845
211.226
211.606
211.986
212.367
212.747
213.128
213.508
213.889
214.27
214.65
215.031
215.412
215.793
216.174
216.555
216.936
217.317
217.699
218.08
218.461
218.843
219.224
219.605
219.987
220.369
220.75
221.132
221.514
221.896
222.277
222.659
223.041
223.423
223.805
224.188
224.57
224.952
225.334
225.717
226.099
226.482
226.864
227.247
227.629
228.012
228.395
228.778
229.161
229.543
229.926
230.309
230.693
231.076
231.459
231.842
232.225
232.609
232.992
233.376
233.759
234.143
234.526
234.91
235.294
235.678
236.062
236.445
236.829
237.213
237.597
237.982
238.366
238.75
239.134
239.519
239.903
240.288
240.672
241.057
241.441
241.826
242.211
242.595
242.98
243.365
243.75
244.135
244.52
244.905
245.29
245.676
246.061
246.446
246.832
247.217
247.602
247.988
248.374
248.759
249.145
249.531
249.917
250.302
250.688
251.074
251.46
251.846
252.233
252.619
253.005
253.391
253.778
254.164
254.551
254.937
255.324
255.71
256.097
256.484
256.87
257.257
257.644
258.031
258.418
258.805
259.192
259.579
259.967
260.354
260.741
261.129
261.516
261.904
262.291
262.679
263.066
263.454
263.842
264.23
264.618
265.005
265.393
265.781
266.17
266.558
266.946
267.334
267.722
268.111
268.499
268.888
269.276
269.665
270.053
270.442
270.831
271.22
271.608
271.997
272.386
272.775
273.164
273.553
273.943
274.332
274.721
275.11
275.5
275.889
276.279
276.668
277.058
277.447
277.837
278.227
278.617
279.006
279.396
279.786
280.176
280.566
280.956
281.347
281.737
282.127
282.517
282.908
283.298
283.689
284.079
284.47
284.861
285.251
285.642
286.033
286.424
286.815
287.205
287.596
287.988
288.379
288.77
289.161
289.552
289.944
290.335
290.727
291.118
291.51
291.901
292.293
292.685
293.076
293.468
293.86
294.252
294.644
295.036
295.428
295.82
296.212
296.605
296.997
297.389
297.782
298.174
298.566
298.959
299.352
299.744
300.137
300.53
300.923
301.315
301.708
302.101
302.494
302.887
303.281
303.674
304.067
304.46
304.854
305.247
305.64
306.034
306.427
306.821
307.215
307.608
308.002
308.396
308.79
309.184
309.578
309.972
310.366
310.76
311.154
311.548
311.943
312.337
312.731
313.126
313.52
313.915
314.309
314.704
315.099
315.494
315.888
316.283
316.678
317.073
317.468
317.863
318.258
318.653
319.049
319.444
319.839
320.235
320.63
321.026
321.421
321.817
322.212
322.608
323.004
323.399
323.795
324.191
324.587
324.983
325.379
325.775
326.171
326.568
326.964
327.36
327.757
328.153
328.549
328.946
329.343
329.739
330.136
330.533
330.929
331.326
331.723
332.12
332.517
332.914
333.311
333.708
334.105
334.503
334.9
335.297
335.695
336.092
336.49
336.887
337.285
337.682
338.08
338.478
338.876
339.273
339.671
340.069
340.467
340.865
341.263
341.662
342.06
342.458
342.856
343.255
343.653
344.052
344.45
344.849
345.247
345.646
346.045
346.443
346.842
347.241
347.64
348.039
348.438
348.837
349.236
349.635
350.035
350.434
350.833
351.233
351.632
352.032
352.431
352.831
353.23
353.63
354.03
354.43
354.829
355.229
355.629
356.029
356.429
356.829
357.23
357.63
358.03
358.43
358.831
359.231
359.631
360.032
360.432
360.833
361.234
361.634
362.035
362.436
362.837
363.238
363.639
364.04
364.441
364.842
365.243
365.644
366.045
366.447
366.848
367.25
367.651
368.053
368.454
368.856
369.257
369.659
370.061
370.463
370.864
371.266
371.668
372.07
372.472
372.874
373.277
373.679
374.081
374.483
374.886
375.288
375.691
376.093
376.496
376.898
377.301
377.704
378.106
378.509
378.912
379.315
379.718
380.121
380.524
380.927
381.33
381.734
382.137
382.54
382.943
383.347
383.75
384.154
384.557
384.961
385.365
385.768
386.172
386.576
386.98
387.384
387.788
388.192
388.596
389.0
389.404
389.808
390.212
390.617
391.021
391.425
391.83
392.234
392.639
393.043
393.448
393.853
394.258
394.662
395.067
395.472
395.877
396.282
396.687
397.092
397.497
397.902
398.308
398.713
399.118
399.524
399.929
400.335
400.74
401.146
401.551
401.957
402.363
402.768
403.174
403.58
403.986
404.392
404.798
405.204
405.61
406.016
406.423
406.829
407.235
407.642
408.048
408.454
408.861
409.267
409.674
410.081
410.487
410.894
411.301
411.708
412.115
412.522
412.929
413.336
413.743
414.15
414.557
414.964
415.372
415.779
416.186
416.594
417.001
417.409
417.816
418.224
418.632
419.039
419.447
419.855
420.263
420.671
421.079
421.487
421.895
422.303
422.711
423.119
423.527
423.936
424.344
424.753
425.161
425.569
425.978
426.387
426.795
427.204
427.613
428.021
428.43
428.839
429.248
429.657
430.066
430.475
430.884
431.293
431.703
432.112
432.521
432.931
433.34
433.749
434.159
434.568
434.978
435.388
435.797
436.207
436.617
437.027
437.437
437.846
438.256
438.667
439.077
439.487
439.897
440.307
440.717
441.128
441.538
441.948
442.359
442.769
443.18
443.59
444.001
444.412
444.823
445.233
445.644
446.055
446.466
446.877
447.288
447.699
448.11
448.521
448.933
449.344
449.755
450.166
450.578
450.989
451.401
451.812
452.224
452.636
453.047
453.459
453.871
454.283
454.694
455.106
455.518
455.93
456.342
456.754
457.167
457.579
457.991
458.403
458.816
459.228
459.64
460.053
460.465
460.878
461.291
461.703
462.116
462.529
462.942
463.354
463.767
464.18
464.593
465.006
465.419
465.833
466.246
466.659
467.072
467.486
467.899
468.312
468.726
469.139
469.553
469.966
470.38
470.794
471.207
471.621
472.035
472.449
472.863
473.277
473.691
474.105
474.519
474.933
475.347
475.762
476.176
476.59
477.005
477.419
477.834
478.248
478.663
479.077
479.492
479.907
480.321
480.736
481.151
481.566
481.981
482.396
482.811
483.226
483.641
484.056
484.471
484.887
485.302
485.717
486.133
486.548
486.964
487.379
487.795
488.21
488.626
489.042
489.457
489.873
490.289
490.705
491.121
491.537
491.953
492.369
492.785
493.201
493.617
494.034
494.45
494.866
495.283
495.699
496.116
496.532
496.949
497.365
497.782
498.199
498.616
499.032
499.449
499.866
500.283
500.7
501.117
501.534
501.951
502.368
502.786
503.203
503.62
504.038
504.455
504.872
505.29
505.707
506.125
506.542
506.96
507.378
507.796
508.213
508.631
509.049
509.467
509.885
510.303
510.721
511.139
511.557
511.975
512.394
512.812
513.23
513.649
514.067
514.486
514.904
515.323
515.741
516.16
516.579
516.997
517.416
517.835
518.254
518.673
519.092
519.511
519.93
520.349
520.768
521.187
521.606
522.025
522.445
522.864
523.284
523.703
524.122
524.542
524.961
525.381
525.801
526.22
526.64
527.06
527.48
527.9
528.32
528.74
529.16
529.58
530.0
530.42
530.84
531.26
531.681
532.101
532.521
532.942
533.362
533.783
534.203
534.624
535.044
535.465
535.886
536.306
536.727
537.148
537.569
537.99
538.411
538.832
539.253
539.674
540.095
540.516
540.938
541.359
541.78
542.201
542.623
543.044
543.466
543.887
544.309
544.731
545.152
545.574
545.996
546.417
546.839
547.261
547.683
548.105
548.527
548.949
549.371
549.793
550.215
550.638
551.06
551.482
551.905
552.327
552.749
553.172
553.594
554.017
554.44
554.862
555.285
555.708
556.13
556.553
556.976
557.399
557.822
558.245
558.668
559.091
559.514
559.937
560.361
560.784
561.207
561.63
562.054
562.477
562.901
563.324
563.748
564.171
564.595
565.019
565.442
565.866
566.29
566.714
567.138
567.561
567.985
568.409
568.833
569.258
569.682
570.106
570.53
570.954
571.379
571.803
572.227
572.652
573.076
573.501
573.925
574.35
574.775
575.199
575.624
576.049
576.474
576.898
577.323
577.748
578.173
578.598
579.023
579.448
579.873
580.299
580.724
581.149
581.574
582.0
582.425
582.851
583.276
583.702
584.127
584.553
584.978
585.404
585.83
586.255
586.681
587.107
587.533
587.959
588.385
588.811
589.237
589.663
590.089
590.515
590.942
591.368
591.794
592.22
592.647
593.073
593.5
593.926
594.353
594.779
595.206
595.633
596.059
596.486
596.913
597.34
597.766
598.193
598.62
599.047
599.474
599.901
600.329
600.756
601.183
601.61
602.037
602.465
602.892
603.319
603.747
604.174
604.602
605.029
605.457
605.885
606.312
606.74
607.168
607.596
608.023
608.451
608.879
609.307
609.735
610.163
610.591
611.019
611.448
611.876
612.304
612.732
613.161
613.589
614.017
614.446
614.874
615.303
615.731
616.16
616.589
617.017
617.446
617.875
618.304
618.732
619.161
619.59
620.019
620.448
620.877
621.306
621.735
622.164
622.594
623.023
623.452
623.881
624.311
624.74
625.17
625.599
626.029
626.458
626.888
627.317
627.747
628.177
628.607
629.036
629.466
629.896
630.326
630.756
631.186
631.616
632.046
632.476
632.906
633.336
633.766
634.197
634.627
635.057
635.488
635.918
636.349
636.779
637.21
637.64
638.071
638.501
638.932
639.363
639.794
640.224
640.655
641.086
641.517
641.948
642.379
642.81
643.241
643.672
644.103
644.534
644.966
645.397
645.828
646.259
646.691
647.122
647.554
647.985
648.417
648.848
649.28
649.712
650.143
650.575
651.007
651.438
651.87
652.302
652.734
653.166
653.598
654.03
654.462
654.894
655.326
655.758
656.191
656.623
657.055
657.487
657.92
658.352
658.785
659.217
659.65
660.082
660.515
660.947
661.38
661.813
662.246
662.678
663.111
663.544
663.977
664.41
664.843
665.276
665.709
666.142
666.575
667.008
667.441
667.875
668.308
668.741
669.174
669.608
670.041
670.475
670.908
671.342
671.775
672.209
672.642
673.076
673.51
673.943
674.377
674.811
675.245
675.679
676.113
676.547
676.981
677.415
677.849
678.283
678.717
679.151
679.585
680.02
680.454
680.888
681.323
681.757
682.191
682.626
683.06
683.495
683.93
684.364
684.799
685.234
685.668
686.103
686.538
686.973
687.408
687.842
688.277
688.712
689.147
689.582
690.018
690.453
690.888
691.323
691.758
692.193
692.629
693.064
693.5
693.935
694.37
694.806
695.241
695.677
696.112
696.548
696.984
697.419
697.855
698.291
698.727
699.163
699.598
700.034
700.47
700.906
701.342
701.778
702.214
702.651
703.087
703.523
703.959
704.395
704.832
705.268
705.704
706.141
706.577
707.014
707.45
707.887
708.323
708.76
709.197
709.633
710.07
710.507
710.943
711.38
711.817
712.254
712.691
713.128
713.565
714.002
714.439
714.876
715.313
715.75
716.188
716.625
717.062
717.499
717.937
718.374
718.812
719.249
719.686
720.124
720.562
720.999
721.437
721.874
722.312
722.75
723.188
723.625
724.063
724.501
724.939
725.377
725.815
726.253
726.691
727.129
727.567
728.005
728.443
728.881
729.32
729.758
730.196
730.634
731.073
731.511
731.95
732.388
732.827
733.265
733.704
734.142
734.581
735.02
735.458
735.897
736.336
736.775
737.213
737.652
738.091
738.53
738.969
739.408
739.847
740.286
740.725
741.164
741.604
742.043
742.482
742.921
743.36
743.8
744.239
744.679
745.118
745.557
745.997
746.436
746.876
747.316
747.755
748.195
748.635
749.074
749.514
749.954
750.394
750.833
751.273
751.713
752.153
752.593
753.033
753.473
753.913
754.353
754.794
755.234
755.674
756.114
756.555
756.995
757.435
757.875
758.316
758.756
759.197
759.637
760.078
760.518
760.959
761.4
761.84
762.281
762.722
763.162
763.603
764.044
764.485
764.926
765.367
765.807
766.248
766.69
767.13
767.572
768.013
768.454
768.895
769.336
769.777
770.219
770.66
771.101
771.543
771.984
772.425
772.867
773.308
773.75
774.191
774.633
775.074
775.516
775.958
776.399
776.841
777.283
777.725
778.167
778.608
779.05
779.492
779.934
780.376
780.818
781.26
781.702
782.144
782.586
783.028
783.471
783.913
784.355
784.797
785.24
785.682
786.124
786.567
787.009
787.452
787.894
788.337
788.779
789.222
789.664
790.107
790.55
790.992
791.435
791.878
792.321
792.763
793.206
793.649
794.092
794.535
794.978
795.421
795.864
796.307
796.75
797.193
797.636
798.08
798.523
798.966
799.409
799.852
800.296
800.739
801.182
801.626
802.069
802.513
802.956
803.4
803.843
804.287
804.731
805.174
805.618
806.062
806.505
806.949
807.393
807.837
808.281
808.724
809.168
809.612
810.056
810.5
810.944
811.388
811.832
812.276
812.721
813.165
813.609
814.053
814.497
814.942
815.386
815.83
816.275
816.719
817.163
817.608
818.052
818.497
818.941
819.386
819.831
820.275
820.72
821.164
821.609
822.054
822.499
822.943
823.388
823.833
824.278
824.723
825.168
825.613
826.058
826.503
826.948
827.393
827.838
828.283
828.728
829.173
829.618
830.064
830.509
830.954
831.399
831.845
832.29
832.736
833.181
833.626
834.072
834.517
834.963
835.408
835.854
836.3
836.745
837.191
837.637
838.082
838.528
838.974
839.42
839.865
840.311
840.757
841.203
841.649
842.095
842.541
842.987
843.433
843.879
844.325
844.771
845.217
845.664
846.11
846.556
847.002
847.448
847.895
848.341
848.787
849.234
849.68
850.127
850.573
851.02
851.466
851.913
852.359
852.806
853.252
853.699
854.146
854.592
855.039
855.486
855.933
856.379
856.826
857.273
857.72
858.167
858.614
859.061
859.508
859.955
860.402
860.849
861.296
861.743
862.19
862.637
863.084
863.531
863.979
864.426
864.873
865.321
865.768
866.215
866.663
867.11
867.557
868.005
868.452
868.9
869.347
869.795
870.242
870.69
871.138
871.585
872.033
872.481
872.928
873.376
873.824
874.272
874.72
875.167
875.615
876.063
876.511
876.959
877.407
877.855
878.303
878.751
879.199
879.647
880.095
880.543
880.992
881.44
881.888
882.336
882.784
883.233
883.681
884.129
884.578
885.026
885.474
885.923
886.371
886.82
887.268
887.717
888.165
888.614
889.062
889.511
889.96
890.408
890.857
891.306
891.754
892.203
892.652
893.101
893.549
893.998
894.447
894.896
895.345
895.794
896.243
896.692
897.141
897.59
898.039
898.488
898.937
899.386
899.835
900.284
900.734
901.183
901.632
902.081
902.53
902.98
903.429
903.878
904.328
904.777
905.227
905.676
906.125
906.575
907.024
907.474
907.923
908.373
908.823
909.272
909.722
910.171
910.621
911.071
911.52
911.97
912.42
912.87
913.319
913.769
914.219
914.669
915.119
915.569
916.019
916.469
916.919
917.369
917.819
918.269
918.719
919.169
919.619
920.069
920.519
920.969
921.419
921.87
922.32
922.77
923.22
923.671
924.121
924.571
925.021
925.472
925.922
926.373
926.823
927.273
927.724
928.174
928.625
929.076
929.526
929.977
930.427
930.878
931.328
931.779
932.23
932.68
933.131
933.582
934.033
934.483
934.934
935.385
935.836
936.287
936.737
937.188
937.639
938.09
938.541
938.992
939.443
939.894
940.345
940.796
941.247
941.698
942.149
942.601
943.052
943.503
943.954
944.405
944.856
945.308
945.759
946.21
946.661
947.113
947.564
948.015
948.467
948.918
949.37
949.821
950.272
950.724
951.175
951.627
952.078
952.53
952.981
953.433
953.885
954.336
954.788
955.24
955.691
956.143
956.595
957.046
957.498
957.95
958.402
958.853
959.305
959.757
960.209
960.661
961.113
961.564
962.016
962.468
962.92
963.372
963.824
964.276
964.728
965.18
965.632
966.084
966.536
966.989
967.441
967.893
968.345
968.797
969.249
969.702
970.154
970.606
971.058
971.511
971.963
972.415
972.867
973.32
973.772
974.225
974.677
975.129
975.582
976.034
976.487
976.939
977.392
977.844
978.297
978.749
979.202
979.654
980.107
980.56
981.012
981.465
981.918
982.37
982.823
983.276
983.728
984.181
984.634
985.087
985.539
985.992
986.445
986.898
987.351
987.804
988.256
988.709
989.162
989.615
990.068
990.521
990.974
991.427
991.88
992.333
992.786
993.239
993.692
994.145
994.598
995.052
995.505
995.958
996.411
996.864
997.317
997.771
998.224
998.677
999.13
999.583
1000.037
1000.49
1000.943
1001.397
1001.85
1002.303
1002.757
1003.21
1003.663
1004.117
1004.57
1005.024
1005.477
1005.931
1006.384
1006.838
1007.291
1007.745
1008.198
1008.652
1009.105
1009.559
1010.012
1010.466
1010.92
1011.373
1011.827
1012.28
1012.734
1013.188
1013.641
1014.095
1014.549
1015.003
1015.456
1015.91
1016.364
1016.818
1017.271
1017.725
1018.179
1018.633
1019.087
1019.541
1019.995
1020.448
1020.902
1021.356
1021.81
1022.264
1022.718
1023.172
1023.626
1024.08
1024.534
1024.988
1025.442
1025.896
1026.35
1026.804
1027.258
1027.712
1028.167
1028.621
1029.075
1029.529
1029.983
1030.437
1030.891
1031.346
1031.8
1032.254
1032.708
1033.162
1033.617
1034.071
1034.525
1034.979
1035.434
1035.888
1036.342
1036.797
1037.251
1037.705
1038.16
1038.614
1039.068
1039.523
1039.977
1040.432
1040.886
1041.341
1041.795
1042.249
1042.704
1043.158
1043.613
1044.067
1044.522
1044.976
1045.431
1045.885
1046.34
1046.795
1047.249
1047.704
1048.158
1048.613
1049.068
1049.522
1049.977
1050.432
1050.886
1051.341
1051.796
1052.25
1052.705
1053.16
1053.614
1054.069
1054.524
1054.979
1055.433
1055.888
1056.343
1056.798
1057.252
1057.707
1058.162
1058.617
1059.072
1059.526
1059.981
1060.436
1060.891
1061.346
1061.801
1062.256
1062.711
1063.166
1063.62
1064.075
1064.53
1064.985
1065.44
1065.895
1066.35
1066.805
1067.26
1067.715
1068.17
1068.625
1069.08
1069.535
1069.99
1070.445
1070.901
1071.356
1071.811
1072.266
1072.721
1073.176
1073.631
1074.086
1074.541
1074.996
1075.452
1075.907
1076.362
1076.817
1077.272
1077.727
1078.183
